#theta/rad	Energie[mu_0/(4*pi) M^2/a^3] Ferro	Energie[mu_0/(4*pi) M^2/a^3] Antiferro
-3.14159	4.55		-1.05
-3.10159	4.5463605		-1.0491601
-3.06159	4.5354478		-1.0466418
-3.02159	4.5172793		-1.0424491
-2.98159	4.4918841		-1.0365886
-2.94159	4.4593029		-1.0290699
-2.90159	4.4195878		-1.0199049
-2.86159	4.3728022		-1.0091082
-2.82159	4.3190212		-0.99669719
-2.78159	4.2583305		-0.98269166
-2.74159	4.1908275		-0.96711404
-2.70159	4.1166201		-0.94998925
-2.66159	4.0358269		-0.93134467
-2.62159	3.9485773		-0.91121014
-2.58159	3.8550108		-0.88961787
-2.54159	3.755277		-0.8666024
-2.50159	3.6495357		-0.84220055
-2.46159	3.5379559		-0.81645135
-2.42159	3.4207161		-0.78939602
-2.38159	3.2980038		-0.76107781
-2.34159	3.1700155		-0.73154204
-2.30159	3.0369559		-0.70083597
-2.26159	2.8990377		-0.6690087
-2.22159	2.7564817		-0.63611116
-2.18159	2.6095159		-0.60219599
-2.14159	2.4583755		-0.56731742
-2.10159	2.3033022		-0.53153127
-2.06159	2.1445441		-0.49489478
-2.02159	1.9823551		-0.45746657
-1.98159	1.8169949		-0.41930651
-1.94159	1.6487278		-0.38047564
-1.90159	1.4778231		-0.3410361
-1.86159	1.3045542		-0.30105097
-1.82159	1.1291983		-0.26058422
-1.78159	0.95203593		-0.2197006
-1.74159	0.7733505		-0.1784655
-1.70159	0.59342787		-0.13694489
-1.66159	0.41255589		-0.095205206
-1.62159	0.23102391		-0.053313209
-1.58159	0.049122333		-0.011335923
-1.54159	-0.13285783		0.030659498
-1.50159	-0.31462544		0.072605871
-1.46159	-0.49588972		0.11443609
-1.42159	-0.67636069		0.15608324
-1.38159	-0.85574962		0.19748068
-1.34159	-1.0337695		0.2385622
-1.30159	-1.2101356		0.27926207
-1.26159	-1.3845658		0.31951518
-1.22159	-1.5567809		0.35925713
-1.18159	-1.7265055		0.39842435
-1.14159	-1.8934681		0.43695418
-1.10159	-2.0574015		0.47478497
-1.06159	-2.2180436		0.51185621
-1.02159	-2.3751372		0.54810858
-0.981593	-2.5284311		0.5834841
-0.941593	-2.6776801		0.61792617
-0.901593	-2.8226453		0.65137969
-0.861593	-2.963095		0.68379114
-0.821593	-3.0988043		0.71510867
-0.781593	-3.2295561		0.74528218
-0.741593	-3.3551414		0.7742634
-0.701593	-3.4753592		0.80200596
-0.661593	-3.5900171		0.82846548
-0.621593	-3.6989318		0.85359964
-0.581593	-3.8019289		0.87736822
-0.541593	-3.8988438		0.89973319
-0.501593	-3.9895214		0.92065878
-0.461593	-4.0738166		0.94011152
-0.421593	-4.1515945		0.95806028
-0.381593	-4.2227308		0.97447635
-0.341593	-4.2871117		0.98933346
-0.301593	-4.344634		1.0026078
-0.261593	-4.3952059		1.0142783
-0.221593	-4.4387463		1.0243261
-0.181593	-4.4751858		1.0327352
-0.141593	-4.5044659		1.0394921
-0.101593	-4.5265398		1.0445861
-0.0615927	-4.5413722		1.048009
-0.0215927	-4.5489393		1.0497552
0.0184073	-4.5492292		1.0498221
0.0584073	-4.5422412		1.0482095
0.0984073	-4.5279867		1.04492
0.138407	-4.5064883		1.0399588
0.178407	-4.4777805		1.033334
0.218407	-4.4419092		1.025056
0.258407	-4.3989318		1.0151381
0.298407	-4.348917		1.0035962
0.338407	-4.2919449		0.99044883
0.378407	-4.2281066		0.97571692
0.418407	-4.1575043		0.95942406
0.458407	-4.0802508		0.94159634
0.498407	-3.9964698		0.92226226
0.538407	-3.9062953		0.90145276
0.578407	-3.8098715		0.87920112
0.618407	-3.7073528		0.85554295
0.658407	-3.5989031		0.8305161
0.698407	-3.4846959		0.80416059
0.738407	-3.364914		0.77651861
0.778407	-3.2397489		0.74763435
0.818407	-3.1094009		0.71755404
0.858407	-2.9740785		0.6863258
0.898407	-2.8339982		0.65399959
0.938407	-2.6893841		0.62062711
0.978407	-2.5404676		0.58626176
1.01841	-2.3874869		0.55095852
1.05841	-2.2306867		0.51477386
1.09841	-2.0703179		0.47776568
1.13841	-1.9066371		0.43999317
1.17841	-1.739906		0.40151676
1.21841	-1.5703914		0.36239802
1.25841	-1.3983646		0.32269951
1.29841	-1.2241006		0.28248476
1.33841	-1.0478784		0.24181809
1.37841	-0.86997976		0.20076456
1.41841	-0.69068936		0.15938985
1.45841	-0.510294		0.11776015
1.49841	-0.32908228		0.075942064
1.53841	-0.1473441		0.034002484
1.57841	0.034629805		-0.0079914934
1.61841	0.21654831		-0.049972686
1.65841	0.39812037		-0.091873933
1.69841	0.57905554		-0.1336282
1.73841	0.75906433		-0.17516869
1.77841	0.93785879		-0.21642895
1.81841	1.1151529		-0.25734297
1.85841	1.2906629		-0.29784529
1.89841	1.4641082		-0.33787113
1.93841	1.6352113		-0.37735644
1.97841	1.8036983		-0.41623807
2.01841	1.9692998		-0.4544538
2.05841	2.1317509		-0.4919425
2.09841	2.2907916		-0.5286442
2.13841	2.4461675		-0.56450019
2.17841	2.5976301		-0.59945309
2.21841	2.744937		-0.63344699
2.25841	2.8878526		-0.66642752
2.29841	3.0261482		-0.6983419
2.33841	3.1596027		-0.72913909
2.37841	3.2880025		-0.75876981
2.41841	3.4111422		-0.78718665
2.45841	3.5288247		-0.81434417
2.49841	3.640862		-0.84019891
2.53841	3.7470746		-0.86470951
2.57841	3.8472927		-0.88783677
2.61841	3.9413559		-0.90954367
2.65841	4.0291138		-0.92979549
2.69841	4.110426		-0.94855984
2.73841	4.1851624		-0.9658067
2.77841	4.2532034		-0.98150847
2.81841	4.3144402		-0.99564004
2.85841	4.3687748		-1.0081788
2.89841	4.4161203		-1.0191047
2.93841	4.456401		-1.0284002
2.97841	4.4895523		-1.0360505
3.01841	4.5155214		-1.0420434
3.05841	4.5342665		-1.0463692
3.09841	4.5457579		-1.049021
3.13841	4.5499769		-1.0499947
0499947
