#theta/rad	Energie[mu_0/(4*pi) M^2/a^3] Ferro	Energie[mu_0/(4*pi) M^2/a^3] Antiferro
-3.14159	9.0271486		-1.0865306
-3.10159	9.0199278		-1.0856615
-3.06159	8.9982771		-1.0830556
-3.02159	8.9622311		-1.078717
-2.98159	8.9118474		-1.0726527
-2.94159	8.8472066		-1.0648723
-2.90159	8.7684122		-1.0553884
-2.86159	8.6755902		-1.0442161
-2.82159	8.5688892		-1.0313733
-2.78159	8.4484797		-1.0168805
-2.74159	8.3145545		-1.000761
-2.70159	8.1673277		-0.98304037
-2.66159	8.007035		-0.96374713
-2.62159	7.8339327		-0.9429121
-2.58159	7.6482978		-0.92056861
-2.54159	7.4504272		-0.8967524
-2.50159	7.2406376		-0.87150159
-2.46159	7.0192645		-0.84485655
-2.42159	6.786662		-0.81685993
-2.38159	6.5432024		-0.78755651
-2.34159	6.289275		-0.75699316
-2.30159	6.0252861		-0.72521879
-2.26159	5.7516581		-0.69228422
-2.22159	5.4688286		-0.65824214
-2.18159	5.1772501		-0.62314702
-2.14159	4.8773892		-0.58705499
-2.10159	4.5697255		-0.5500238
-2.06159	4.2547512		-0.51211269
-2.02159	3.9329702		-0.47338231
-1.98159	3.6048973		-0.43389462
-1.94159	3.2710573		-0.39371279
-1.90159	2.9319843		-0.3529011
-1.86159	2.5882208		-0.31152485
-1.82159	2.2403167		-0.26965022
-1.78159	1.8888285		-0.22734421
-1.74159	1.5343187		-0.1846745
-1.70159	1.1773542		-0.14170935
-1.66159	0.81850623		-0.098517495
-1.62159	0.45834882		-0.055168032
-1.58159	0.097458153		-0.011730312
-1.54159	-0.26358843		0.031726175
-1.50159	-0.62421332		0.075131906
-1.46159	-0.98383961		0.11841744
-1.42159	-1.341892		0.16151353
-1.38159	-1.6977976		0.20435124
-1.34159	-2.0509871		0.24686203
-1.30159	-2.4008954		0.28897789
-1.26159	-2.7469629		0.33063145
-1.22159	-3.0886357		0.37175607
-1.18159	-3.4253675		0.41228595
-1.14159	-3.7566193		0.45215627
-1.10159	-4.0818614		0.49130324
-1.06159	-4.4005734		0.52966422
-1.02159	-4.7122454		0.56717786
-0.981593	-5.0163788		0.60378413
-0.941593	-5.312487		0.63942447
-0.901593	-5.6000965		0.67404188
-0.861593	-5.8787469		0.70758095
-0.821593	-6.1479926		0.73998806
-0.781593	-6.4074029		0.77121133
-0.741593	-6.6565626		0.80120084
-0.701593	-6.8950733		0.82990859
-0.661593	-7.1225534		0.85728867
-0.621593	-7.3386388		0.88329727
-0.581593	-7.5429841		0.90789278
-0.541593	-7.7352621		0.93103585
-0.501593	-7.9151654		0.95268947
-0.461593	-8.0824061		0.97281899
-0.421593	-8.2367167		0.9913922
-0.381593	-8.3778503		1.0083794
-0.341593	-8.5055811		1.0237534
-0.301593	-8.6197048		1.0374896
-0.261593	-8.7200388		1.0495661
-0.221593	-8.8064226		1.0599635
-0.181593	-8.878718		1.0686651
-0.141593	-8.9368094		1.0756571
-0.101593	-8.9806037		1.0809283
-0.0615927	-9.0100311		1.0844703
-0.0215927	-9.0250443		1.0862773
0.0184073	-9.0256193		1.0863465
0.0584073	-9.0117553		1.0846778
0.0984073	-8.9834744		1.0812739
0.138407	-8.9408218		1.0761401
0.178407	-8.8838659		1.0692847
0.218407	-8.8126976		1.0607187
0.258407	-8.7274309		1.0504558
0.298407	-8.6282022		1.0385124
0.338407	-8.5151702		1.0249076
0.378407	-8.3885158		1.0096631
0.418407	-8.2484415		0.99280343
0.458407	-8.0951715		0.97435546
0.498407	-7.9289509		0.95434873
0.538407	-7.7500457		0.93281524
0.578407	-7.5587421		0.90978945
0.618407	-7.3553461		0.88530819
0.658407	-7.1401831		0.85941062
0.698407	-6.9135973		0.83213818
0.738407	-6.6759513		0.8035345
0.778407	-6.4276251		0.77364534
0.818407	-6.1690162		0.7425185
0.858407	-5.9005381		0.7102038
0.898407	-5.6226204		0.67675292
0.938407	-5.3357077		0.64221938
0.978407	-5.0402591		0.60665842
1.01841	-4.7367471		0.57012694
1.05841	-4.4256573		0.53268339
1.09841	-4.1074874		0.49438765
1.13841	-3.7827464		0.45530099
1.17841	-3.4519538		0.41548595
1.21841	-3.1156388		0.37500623
1.25841	-2.7743395		0.33392657
1.29841	-2.4286018		0.2923127
1.33841	-2.0789789		0.25023119
1.37841	-1.72603		0.20774937
1.41841	-1.3703199		0.16493519
1.45841	-1.0124175		0.12185715
1.49841	-0.65289552		0.078584168
1.53841	-0.29232902		0.035185466
1.57841	0.068705142		-0.0082695259
1.61841	0.42962939		-0.051711288
1.65841	0.78986633		-0.095070323
1.69841	1.1488396		-0.13827727
1.73841	1.5059751		-0.18126299
1.77841	1.8607012		-0.22395874
1.81841	2.2124507		-0.2662962
1.85841	2.5606607		-0.30820765
1.89841	2.9047742		-0.34962602
1.93841	3.2442407		-0.39048507
1.97841	3.578517		-0.43071943
2.01841	3.9070686		-0.47026473
2.05841	4.2293696		-0.5090577
2.09841	4.5449046		-0.54703629
2.13841	4.8531686		-0.58413974
2.17841	5.1536687		-0.62030869
2.21841	5.4459239		-0.65548528
2.25841	5.7294669		-0.68961323
2.29841	6.0038439		-0.72263795
2.33841	6.2686161		-0.7545066
2.37841	6.5233598		-0.7851682
2.41841	6.7676675		-0.8145737
2.45841	7.0011484		-0.84267606
2.49841	7.223429		-0.86943031
2.53841	7.4341536		-0.89479367
2.57841	7.6329852		-0.91872554
2.61841	7.8196056		-0.94118765
2.65841	7.9937163		-0.96214405
2.69841	8.1550387		-0.98156124
2.73841	8.3033149		-0.99940813
2.77841	8.4383075		-1.0156562
2.81841	8.5598006		-1.0302794
2.85841	8.6675999		-1.0432544
2.89841	8.7615328		-1.0545604
2.93841	8.8414492		-1.0641793
2.97841	8.9072211		-1.0720958
3.01841	8.9587434		-1.0782972
3.05841	8.9959336		-1.0827735
3.09841	9.0187322		-1.0855176
3.13841	9.0271028		-1.0865251
